# Created by:        SpecsLab Prodigy, Version 4.91.3-r105809 
#
# XY-Serializer Export Settings:
#   Comment Prefix:           #
#   Output Meta Data:         yes
#   Energy Axis:              Kinetic Energy
#   Count Rate:               Counts per Second
#   Separate Scan Data:       no
#   Separate Channel Data:    no
#   External Channel Data:    yes
#   Transmission Function:    no
#   Error Bar:                no
#   Operation Results:        yes
#   Time Zone Format:         UTC
#
# Group:                        Transmission cyclic
#
# Region:                       Mn2p3
# Spectrum ID:                  9
# Acquisition Date:             06/01/22 10:10:23 UTC
# Analysis Method:              XPS
# Analyzer Lens:                SmallArea:1.5kV
# Analyzer Slit:                4:7x20c\B:open
# Scan Mode:                    FixedAnalyzerTransmission
# Curves/Scan:                  1
# Values/Curve:                 181
# Dwell Time:                   0.1
# Excitation Energy:            1486.61
# Kinetic Energy:               834.61
# Pass Energy:                  20
# Bias Voltage:                 90
# Detector Voltage:             1850
# Eff. Workfunction:            4.14
# Source:                       X-Ray Dummy
# Comment:                      
# OrdinateRange:                [-22.000000, 22.000000]

# Cycle: 0
#
# Number of Scans: 45

# Cycle: 0, Curve: 0
#
# Acquisition Date:             06/01/22 10:10:23 UTC
# ColumnLabels:                 energy counts/s
#
834.61  6599.4859
834.71  6609.4998
834.81  6678.6218
834.91  6664.2316
835.01  6604.7838
835.11  6641.5091
835.21  6626.8821
835.31  6630.0236
835.41  6657.9392
835.51  6689.5312
835.61  6640.7679
835.71  6691.3074
835.81  6631.8888
835.91  6672.001
836.01  6654.1483
836.11  6745.1428
836.21  6692.1265
836.31  6562.2119
836.41  6553.4092
836.51  6569.0137
836.61  6545.3657
836.71  6490.0624
836.81  6466.8623
836.91  6459.5764
837.01  6424.778
837.11  6450.4715
837.21  6460.4972
837.31  6451.155
837.41  6551.5852
837.51  6509.234
837.61  6523.8053
837.71  6555.7666
837.81  6591.6391
837.91  6632.2188
838.01  6583.5221
838.11  6540.9316
838.21  6600.7226
838.31  6545.1136
838.41  6596.6626
838.51  6518.0162
838.61  6544.7085
838.71  6527.9313
838.81  6534.7176
838.91  6484.9194
839.01  6466.8437
839.11  6482.9193
839.21  6438.815
839.31  6388.4956
839.41  6303.0239
839.51  6329.8775
839.61  6393.483
839.71  6314.7647
839.81  6289.0267
839.91  6326.9251
840.01  6267.6199
840.11  6318.9513
840.21  6262.633
840.31  6319.0543
840.41  6235.7791
840.51  6250.1414
840.61  6196.0425
840.71  6193.5515
840.81  6190.7521
840.91  6165.0329
841.01  6205.9047
841.11  6127.2791
841.21  6145.8487
841.31  6155.5366
841.41  6230.074
841.51  6138.7731
841.61  6175.8429
841.71  6133.7557
841.81  6152.2064
841.91  6178.2475
842.01  6182.4242
842.11  6185.6215
842.21  6155.0146
842.31  6173.2728
842.41  6234.6351
842.51  6208.8219
842.61  6208.5887
842.71  6170.2968
842.81  6239.0663
842.91  6211.7195
843.01  6215.6384
843.11  6320.5328
843.21  6306.2277
843.31  6242.9245
843.41  6365.8544
843.51  6299.0371
843.61  6312.5239
843.71  6356.1036
843.81  6391.07
843.91  6334.6891
844.01  6366.8317
844.11  6410.3132
844.21  6447.3007
844.31  6483.1322
844.41  6536.7963
844.51  6514.6011
844.61  6542.3909
844.71  6611.8451
844.81  6629.5268
844.91  6612.2996
845.01  6647.7472
845.11  6717.7336
845.21  6769.1387
845.31  6750.1028
845.41  6830.2608
845.51  6886.2998
845.61  6940.6665
845.71  7040.805
845.81  7065.9934
845.91  7003.797
846.01  7068.4756
846.11  7033.2736
846.21  7124.7392
846.31  7083.094
846.41  7069.2868
846.51  7061.5354
846.61  6927.4201
846.71  6888.6198
846.81  6876.3497
846.91  6856.333
847.01  6817.3765
847.11  6763.8243
847.21  6686.5618
847.31  6567.5672
847.41  6505.6528
847.51  6364.8249
847.61  6254.9318
847.71  6037.8602
847.81  5835.0397
847.91  5613.3427
848.01  5430.0385
848.11  5283.8751
848.21  5173.3099
848.31  5189.5336
848.41  5128.5504
848.51  5112.1696
848.61  5074.9235
848.71  5057.4744
848.81  5033.2449
848.91  4966.5841
849.01  4992.1342
849.11  4934.1076
849.21  4975.4228
849.31  4939.9972
849.41  4982.5349
849.51  4926.4932
849.61  4907.9612
849.71  4900.7162
849.81  4884.5215
849.91  4906.0746
850.01  4872.8363
850.11  4880.0633
850.21  4886.8094
850.31  4814.2349
850.41  4740.4192
850.51  4817.345
850.61  4907.2172
850.71  4845.6553
850.81  4804.8585
850.91  4790.5989
851.01  4837.4011
851.11  4813.6246
851.21  4757.1867
851.31  4830.4691
851.41  4781.6577
851.51  4754.1549
851.61  4767.8591
851.71  4712.9787
851.81  4783.6184
851.91  4754.0355
852.01  4754.1499
852.11  4750.9534
852.21  4768.6966
852.31  4797.4663
852.41  4771.2977
852.51  4770.8752
852.61  4733.4717

# External Channel Data Cycle: 0, Temp1_Sen [K] (EBH 150)
#
# ColumnLabels: energy Temp1_Sen [K] (EBH 150)
#
834.61 414.69928888888876
834.71 414.69926666666657
834.81 414.69864444444431
834.91 414.69884444444438
835.01 414.69911111111099
835.11 414.69966666666659
835.21 414.6994222222221
835.31 414.69955555555549
835.41 414.69833333333332
835.51 414.69811111111107
835.61 414.69733333333329
835.71 414.69733333333329
835.81 414.69737777777783
835.91 414.69737777777772
836.01 414.69724444444438
836.11 414.69706666666661
836.21 414.69717777777777
836.31 414.69720000000001
836.41 414.69735555555548
836.51 414.69715555555553
836.61 414.69737777777772
836.71 414.69748888888887
836.81 414.69628888888894
836.91 414.69648888888901
837.01 414.69646666666665
837.11 414.69586666666669
837.21 414.6962444444444
837.31 414.69608888888888
837.41 414.69553333333329
837.51 414.69542222222219
837.61 414.69484444444447
837.71 414.69500000000005
837.81 414.69526666666667
837.91 414.69531111111115
838.01 414.69504444444448
838.11 414.69520000000006
838.21 414.69366666666673
838.31 414.69377777777788
838.41 414.69384444444455
838.51 414.69377777777788
838.61 414.69400000000007
838.71 414.69395555555559
838.81 414.69375555555564
838.91 414.69364444444454
839.01 414.69293333333343
839.11 414.69282222222228
839.21 414.69300000000004
839.31 414.69313333333338
839.41 414.69340000000005
839.51 414.69360000000006
839.61 414.69162222222229
839.71 414.69162222222224
839.81 414.69164444444436
839.91 414.69166666666661
840.01 414.69208888888892
840.11 414.69226666666668
840.21 414.69119999999998
840.31 414.69122222222222
840.41 414.69108888888894
840.51 414.69060000000002
840.61 414.69091111111112
840.71 414.69106666666664
840.81 414.69037777777777
840.91 414.69060000000002
841.01 414.69059999999996
841.11 414.69031111111116
841.21 414.68980000000005
841.31 414.68993333333333
841.41 414.68977777777781
841.51 414.69015555555558
841.61 414.68902222222215
841.71 414.68897777777772
841.81 414.68842222222219
841.91 414.68860000000001
842.01 414.68868888888875
842.11 414.68860000000001
842.21 414.68844444444454
842.31 414.68857777777771
842.41 414.68879999999996
842.51 414.68926666666664
842.61 414.68857777777782
842.71 414.68871111111116
842.81 414.68884444444444
842.91 414.68877777777783
843.01 414.68844444444443
843.11 414.68824444444442
843.21 414.68637777777769
843.31 414.68635555555545
843.41 414.68633333333321
843.51 414.68635555555545
843.61 414.68631111111097
843.71 414.68637777777758
843.81 414.6864666666666
843.91 414.68595555555555
844.01 414.68611111111113
844.11 414.6869333333334
844.21 414.68686666666673
844.31 414.68675555555558
844.41 414.68657777777787
844.51 414.68673333333339
844.61 414.68522222222219
844.71 414.68524444444449
844.81 414.68504444444437
844.91 414.68477777777764
845.01 414.68468888888879
845.11 414.68431111111113
845.21 414.6835999999999
845.31 414.68268888888883
845.41 414.68279999999987
845.51 414.68291111111103
845.61 414.68282222222211
845.71 414.68284444444436
845.81 414.68295555555545
845.91 414.68322222222218
846.01 414.68200000000007
846.11 414.68200000000007
846.21 414.68202222222226
846.31 414.68220000000008
846.41 414.68240000000003
846.51 414.6820444444445
846.61 414.68160000000006
846.71 414.6820444444445
846.81 414.6817333333334
846.91 414.68204444444461
847.01 414.68220000000008
847.11 414.68208888888904
847.21 414.68097777777797
847.31 414.68077777777791
847.41 414.68057777777801
847.51 414.68028888888915
847.61 414.68064444444462
847.71 414.6810222222224
847.81 414.68048888888893
847.91 414.6804444444445
848.01 414.68035555555559
848.11 414.68028888888892
848.21 414.67942222222217
848.31 414.67939999999993
848.41 414.67931111111102
848.51 414.67891111111112
848.61 414.67893333333325
848.71 414.67804444444442
848.81 414.67779999999999
848.91 414.67786666666666
849.01 414.67808888888885
849.11 414.67835555555553
849.21 414.67855555555553
849.31 414.67855555555553
849.41 414.67773333333326
849.51 414.67773333333326
849.61 414.67835555555553
849.71 414.67855555555548
849.81 414.67746666666653
849.91 414.67775555555545
850.01 414.67717777777773
850.11 414.67724444444434
850.21 414.67695555555548
850.31 414.67715555555549
850.41 414.67693333333318
850.51 414.67717777777773
850.61 414.67708888888882
850.71 414.67686666666674
850.81 414.67682222222226
850.91 414.6761333333335
851.01 414.67566666666687
851.11 414.67595555555573
851.21 414.67593333333355
851.31 414.67548888888899
851.41 414.67540000000008
851.51 414.67568888888894
851.61 414.67524444444439
851.71 414.67513333333329
851.81 414.67524444444439
851.91 414.67546666666658
852.01 414.67513333333329
852.11 414.67504444444444
852.21 414.67404444444441
852.31 414.67277777777775
852.41 414.67284444444442
852.51 414.6726666666666
852.61 414.67253333333332

