VAMAS Surface Chemical Analysis Standard Data Transfer Format 1988 May 4
Specs
PHOIBOS HSA3500 DLD 150 R7[HWType 30:101] DLD
ppxcf1
?
1
Created by SpecsLab Prodigy, Version 4.91.3-r105809 
NORM
REGULAR
1
0
0
0
0
0
1
As3d4
Transmission cyclic
2022
6
1
13
28
38
0
9
File = C:/Users/ppxcf1/Desktop/Data/XPS/01-Jun-2022/Experiment 2022-06-01_CuMnAs (1).sle
Group = Transmission cyclic
First of group = 1
Spectrum ID = 19
Analyzer lens = SmallArea:1.5kV
Analyzer slit = 4:7x20c\B:open
Scan mode = FixedAnalyzerTransmission
Kinetic energy start = 1434.61
OrdinateRange = [-22.000000, 22.000000]
XPS
Al
1486.61
0
0
0
54.500000
180.000000
FAT
20
1
4.14
0
0
0
0
0
As3d4

-1
kinetic energy
eV
1434.61
0.1
2
counts
d
Transmission
d
pulse counting
0.5
48
0
0
0
0
0
262
1247.67
12518.2
1
1
2943.23
1
2783.71
1
2882.74
1
2890.15
1
2957.22
1
3061.16
1
2986.42
1
2919.63
1
2996.35
1
2980.98
1
3114.17
1
3033.24
1
3135.74
1
3114.37
1
3105.66
1
3164.45
1
3193.69
1
3171.63
1
3218.99
1
3203.19
1
3356.25
1
3325.2
1
3293.1
1
3441.87
1
3416.27
1
3380.46
1
3380.14
1
3559.92
1
3515.98
1
3529.6
1
3599.55
1
3717.84
1
3822.08
1
3840.05
1
3951.34
1
4002.25
1
4247.36
1
4276.65
1
4287.97
1
4296.95
1
4162.15
1
4243.32
1
4266.51
1
4264.81
1
4091.56
1
3884.24
1
3652.18
1
3474.12
1
3251.75
1
2994.34
1
2679.5
1
2426.03
1
2207.27
1
2161.33
1
2117.19
1
2008.96
1
2046.92
1
1943.41
1
1876.12
1
1961.33
1
1972.32
1
2022.21
1
2025.42
1
2076.64
1
2038.72
1
2004.85
1
2098.78
1
2035.84
1
2148.32
1
2127.33
1
2101.67
1
2203.36
1
2145.08
1
2159.54
1
2209.18
1
2277.1
1
2353.51
1
2347.13
1
2311.32
1
2339.02
1
2390.85
1
2543.99
1
2669.78
1
2764.57
1
2954.73
1
3144.28
1
3431.22
1
3656.9
1
3804.57
1
4177.81
1
4490.86
1
4945.13
1
5460.23
1
6028.07
1
6836.24
1
7794.31
1
8672.32
1
9828.57
1
10602.5
1
11402.2
1
11677.7
1
11853.5
1
12108.4
1
12171.4
1
12308.7
1
12518.2
1
12271.1
1
11324.4
1
9888.72
1
8462.32
1
6834.33
1
5626.3
1
4394.3
1
3642.23
1
3017.01
1
2521.62
1
2113.61
1
1791.11
1
1673.24
1
1562.92
1
1413.1
1
1410.06
1
1377.37
1
1386.64
1
1335.6
1
1287.94
1
1257.22
1
1286.53
1
1247.67
1
1309.62
1
1335.63
1
end of experiment
