VAMAS Surface Chemical Analysis Standard Data Transfer Format 1988 May 4
Specs
PHOIBOS HSA3500 DLD 150 R7[HWType 30:101] DLD
ppxcf1
?
1
Created by SpecsLab Prodigy, Version 4.91.3-r105809 
NORM
REGULAR
1
0
0
0
0
0
1
Mn2p3
Transmission cyclic
2022
6
1
10
10
23
0
9
File = C:/Users/ppxcf1/Desktop/Data/XPS/01-Jun-2022/Experiment 2022-06-01_CuMnAs (1).sle
Group = Transmission cyclic
First of group = 1
Spectrum ID = 9
Analyzer lens = SmallArea:1.5kV
Analyzer slit = 4:7x20c\B:open
Scan mode = FixedAnalyzerTransmission
Kinetic energy start = 834.61
OrdinateRange = [-22.000000, 22.000000]
XPS
Al
1486.61
0
0
0
54.500000
180.000000
FAT
20
1
4.14
0
0
0
0
0
Mn2p3

-1
kinetic energy
eV
834.61
0.1
2
counts
d
Transmission
d
pulse counting
0.1
45
0
0
0
0
0
362
21208.4
32061.3
1
1
29697.7
1
29742.7
1
30053.8
1
29989
1
29721.5
1
29886.8
1
29821
1
29835.1
1
29960.7
1
30102.9
1
29883.5
1
30110.9
1
29843.5
1
30024
1
29943.7
1
30353.1
1
30114.6
1
29530
1
29490.3
1
29560.6
1
29454.1
1
29205.3
1
29100.9
1
29068.1
1
28911.5
1
29027.1
1
29072.2
1
29030.2
1
29482.1
1
29291.6
1
29357.1
1
29500.9
1
29662.4
1
29845
1
29625.8
1
29434.2
1
29703.3
1
29453
1
29685
1
29331.1
1
29451.2
1
29375.7
1
29406.2
1
29182.1
1
29100.8
1
29173.1
1
28974.7
1
28748.2
1
28363.6
1
28484.4
1
28770.7
1
28416.4
1
28300.6
1
28471.2
1
28204.3
1
28435.3
1
28181.8
1
28435.7
1
28061
1
28125.6
1
27882.2
1
27871
1
27858.4
1
27742.6
1
27926.6
1
27572.8
1
27656.3
1
27699.9
1
28035.3
1
27624.5
1
27791.3
1
27601.9
1
27684.9
1
27802.1
1
27820.9
1
27835.3
1
27697.6
1
27779.7
1
28055.9
1
27939.7
1
27938.6
1
27766.3
1
28075.8
1
27952.7
1
27970.4
1
28442.4
1
28378
1
28093.2
1
28646.3
1
28345.7
1
28406.4
1
28602.5
1
28759.8
1
28506.1
1
28650.7
1
28846.4
1
29012.9
1
29174.1
1
29415.6
1
29315.7
1
29440.8
1
29753.3
1
29832.9
1
29755.3
1
29914.9
1
30229.8
1
30461.1
1
30375.5
1
30736.2
1
30988.3
1
31233
1
31683.6
1
31797
1
31517.1
1
31808.1
1
31649.7
1
32061.3
1
31873.9
1
31811.8
1
31776.9
1
31173.4
1
30998.8
1
30943.6
1
30853.5
1
30678.2
1
30437.2
1
30089.5
1
29554.1
1
29275.4
1
28641.7
1
28147.2
1
27170.4
1
26257.7
1
25260
1
24435.2
1
23777.4
1
23279.9
1
23352.9
1
23078.5
1
23004.8
1
22837.2
1
22758.6
1
22649.6
1
22349.6
1
22464.6
1
22203.5
1
22389.4
1
22230
1
22421.4
1
22169.2
1
22085.8
1
22053.2
1
21980.3
1
22077.3
1
21927.8
1
21960.3
1
21990.6
1
21664.1
1
21331.9
1
21678.1
1
22082.5
1
21805.4
1
21621.9
1
21557.7
1
21768.3
1
21661.3
1
21407.3
1
21737.1
1
21517.5
1
21393.7
1
21455.4
1
21208.4
1
21526.3
1
21393.2
1
21393.7
1
21379.3
1
21459.1
1
21588.6
1
21470.8
1
21468.9
1
21300.6
1
end of experiment
