VAMAS Surface Chemical Analysis Standard Data Transfer Format 1988 May 4
Specs
PHOIBOS HSA3500 DLD 150 R7[HWType 30:101] DLD
ppxcf1
?
1
Created by SpecsLab Prodigy, Version 4.91.3-r105809 
NORM
REGULAR
1
0
0
0
0
0
1
As3d3
Transmission cyclic
2022
6
1
9
43
49
0
9
File = C:/Users/ppxcf1/Desktop/Data/XPS/01-Jun-2022/Experiment 2022-06-01_CuMnAs (1).sle
Group = Transmission cyclic
First of group = 1
Spectrum ID = 6
Analyzer lens = SmallArea:1.5kV
Analyzer slit = 4:7x20c\B:open
Scan mode = FixedAnalyzerTransmission
Kinetic energy start = 1434.61
OrdinateRange = [-22.000000, 22.000000]
XPS
Al
1486.61
0
0
0
54.500000
180.000000
FAT
20
1
4.14
0
0
0
0
0
As3d3

-1
kinetic energy
eV
1434.61
0.1
2
counts
d
Transmission
d
pulse counting
0.1
134
0
0
0
0
0
262
2007.36
59022.5
1
1
6311.09
1
6445.41
1
6211.68
1
6288.34
1
6254.69
1
6197.43
1
6166.21
1
6254.8
1
6337.96
1
6395.1
1
6257.99
1
6253.41
1
6324.26
1
6473.43
1
6554.09
1
6456.54
1
6599.97
1
6554.62
1
6510.27
1
6383.69
1
6527.9
1
6416.83
1
6524.24
1
6438.88
1
6552.19
1
6517.68
1
6537.72
1
6436.92
1
6496.78
1
6525.92
1
6553.13
1
6691.54
1
6675.61
1
6490.51
1
6639.84
1
6772.1
1
6877.85
1
6977.95
1
7030.43
1
7131.15
1
7047.79
1
6999.57
1
7023.49
1
6818.08
1
6766
1
6622.74
1
6464.42
1
6317.16
1
6159.14
1
5957.58
1
5668.67
1
5466.27
1
5263.64
1
5236.15
1
5206.55
1
5093.2
1
5052
1
5087.5
1
5071.88
1
5033.6
1
5136.55
1
5141.28
1
5018.33
1
5231.44
1
5274.66
1
5171.87
1
5326.63
1
5123.11
1
5175.16
1
5245.45
1
5366.1
1
5503.83
1
5537.06
1
5616.16
1
5667.63
1
5701.55
1
5815.19
1
6070.55
1
6225.2
1
6492.34
1
6749.27
1
7033.43
1
7656.59
1
8489.96
1
9560.69
1
11281.1
1
13774.4
1
17440.9
1
22565.3
1
28562.8
1
34785.7
1
40448
1
43778.7
1
45542.7
1
46247.8
1
47620.4
1
50610.7
1
55191.9
1
58621.7
1
59022.5
1
55197.5
1
47794.5
1
39550.9
1
31558.1
1
24902.8
1
20568
1
17477
1
15130.2
1
13155.7
1
11143.6
1
9377.26
1
7686.11
1
6454.96
1
5315.76
1
4412.01
1
3746.6
1
3267.14
1
2913.36
1
2712.43
1
2534.13
1
2456.59
1
2343.75
1
2284.39
1
2184.66
1
2106.12
1
2138.78
1
2007.36
1
2079.49
1
2131.61
1
2153.04
1
2141.08
1
end of experiment
