VAMAS Surface Chemical Analysis Standard Data Transfer Format 1988 May 4
Specs
PHOIBOS HSA3500 DLD 150 R7[HWType 30:101] DLD
ppxcf1
?
1
Created by SpecsLab Prodigy, Version 4.91.3-r105809 
NORM
REGULAR
1
0
0
0
0
0
1
Mn2p4
Transmission cyclic
2022
6
1
13
19
10
0
9
File = C:/Users/ppxcf1/Desktop/Data/XPS/01-Jun-2022/Experiment 2022-06-01_CuMnAs (1).sle
Group = Transmission cyclic
First of group = 1
Spectrum ID = 15
Analyzer lens = SmallArea:1.5kV
Analyzer slit = 4:7x20c\B:open
Scan mode = FixedAnalyzerTransmission
Kinetic energy start = 834.61
OrdinateRange = [-22.000000, 22.000000]
XPS
Al
1486.61
0
0
0
54.500000
180.000000
FAT
20
1
4.14
0
0
0
0
0
Mn2p4

-1
kinetic energy
eV
834.61
0.1
2
counts
d
Transmission
d
pulse counting
0.5
50
0
0
0
0
0
362
29124.5
43308.9
1
1
41141.5
1
40857.2
1
41020.3
1
40714.3
1
41231.9
1
41205.1
1
41677.3
1
41377.6
1
41197.1
1
41225.3
1
40972.4
1
41065.8
1
40999.7
1
40991.2
1
40816.5
1
41071.8
1
40532.4
1
40392.6
1
40647.4
1
40529.6
1
40165.5
1
40084.1
1
40065.5
1
40530.3
1
40632.5
1
40231.2
1
40398.9
1
40332.9
1
40413.7
1
40952.5
1
40583.5
1
41069.5
1
40681.8
1
40673.5
1
41015.5
1
41118.7
1
40911.3
1
40669.5
1
40729.4
1
40538.5
1
40647.8
1
40444.8
1
40039.1
1
40083.1
1
39741.4
1
39733.4
1
40077.2
1
39709.5
1
39427.7
1
39396.3
1
38976.7
1
38992
1
38914.5
1
38881.2
1
38486.9
1
38640.7
1
38532.4
1
38478.9
1
38097.8
1
37959.1
1
38028.1
1
38230.7
1
38155.7
1
38050.5
1
38130.9
1
38370.2
1
38093
1
38069.7
1
37824.7
1
37883.5
1
38151
1
38274.1
1
38383.6
1
38398
1
38284.2
1
37988
1
37834.6
1
37980.2
1
38392
1
38499.5
1
38704.1
1
38393.7
1
38701.6
1
38446.9
1
38803.2
1
38680.3
1
38839.7
1
38666.7
1
38997.2
1
38748
1
39084.5
1
39281.5
1
39016.9
1
39307.7
1
39244.9
1
39061.9
1
39361
1
39547.5
1
39772.4
1
40211.4
1
40455.5
1
40936.7
1
40732
1
40848.4
1
41228.1
1
41406.5
1
41923.8
1
42177.2
1
42072.4
1
42229.1
1
42304.2
1
42584.8
1
42456.9
1
42833.6
1
43308.9
1
43203.2
1
42521
1
42660.7
1
42338.5
1
42164.8
1
42224.8
1
41857.9
1
41443.8
1
40917.2
1
40489.3
1
40690.3
1
40492.2
1
40077.3
1
39231.1
1
38041.2
1
37060.2
1
35823.1
1
34849.4
1
33991.2
1
32805.8
1
32193.3
1
32144.7
1
31622.8
1
31182.3
1
30979.3
1
31334.4
1
31157.1
1
30895.5
1
30841.5
1
30827.9
1
30743
1
30487.1
1
30379
1
30566.6
1
30597.4
1
30616.4
1
30622.8
1
30227.8
1
30135.9
1
30353.8
1
29941.4
1
30064.5
1
30124
1
30089
1
30003.3
1
29810
1
29883.2
1
29893.9
1
29639.9
1
29936.8
1
29754.2
1
29661.4
1
29593.2
1
29634.5
1
29676
1
29600.8
1
29513.1
1
29669.1
1
29658.6
1
29320
1
29124.5
1
29204.8
1
29656.8
1
29414.1
1
29484.4
1
29561.4
1
end of experiment
