VAMAS Surface Chemical Analysis Standard Data Transfer Format 1988 May 4
Specs
PHOIBOS HSA3500 DLD 150 R7[HWType 30:101] DLD
ppxcf1
?
1
Created by SpecsLab Prodigy, Version 4.91.3-r105809 
NORM
REGULAR
1
0
0
0
0
0
1
As3d2
Transmission cyclic
2022
6
1
8
53
32
0
9
File = C:/Users/ppxcf1/Desktop/Data/XPS/01-Jun-2022/Experiment 2022-06-01_CuMnAs (1).sle
Group = Transmission cyclic
First of group = 1
Spectrum ID = 5
Analyzer lens = SmallArea:1.5kV
Analyzer slit = 4:7x20c\B:open
Scan mode = FixedAnalyzerTransmission
Kinetic energy start = 1434.61
OrdinateRange = [-22.000000, 22.000000]
XPS
Al
1486.61
0
0
0
54.500000
180.000000
FAT
20
1
4.14
0
0
0
0
0
As3d2

-1
kinetic energy
eV
1434.61
0.1
2
counts
d
Transmission
d
pulse counting
0.1
21
0
0
0
0
0
262
52.8206
1658.81
1
1
178.505
1
198.329
1
194.973
1
180.905
1
212.983
1
201.359
1
207.008
1
181.954
1
187.078
1
202.109
1
209.912
1
188.751
1
170.963
1
197.623
1
212.798
1
222.053
1
217.324
1
214.993
1
202.824
1
201.121
1
200.954
1
193.044
1
189.442
1
211.16
1
205.394
1
193.775
1
175.809
1
186.07
1
189.261
1
180.093
1
215.795
1
206.689
1
179.863
1
187.194
1
173.45
1
172.52
1
191.204
1
187.888
1
191.944
1
182.114
1
186.995
1
175.768
1
198.779
1
172.864
1
181.678
1
210.344
1
177.991
1
188.146
1
184.918
1
185.761
1
185.43
1
212.431
1
224.86
1
216.698
1
234.439
1
263.114
1
245.571
1
259.18
1
264.894
1
227.478
1
258.274
1
272.274
1
286.802
1
305.035
1
328.962
1
369.271
1
337.04
1
347.789
1
354.878
1
371.328
1
360.84
1
330.125
1
343.015
1
301.913
1
279.532
1
285.976
1
303.773
1
251.96
1
244.729
1
240.63
1
262.325
1
273.549
1
282.973
1
319.586
1
334.43
1
358.904
1
402.652
1
493.804
1
615.981
1
806.488
1
932.115
1
1194.76
1
1355.57
1
1436.32
1
1390.87
1
1387.36
1
1475.04
1
1496.06
1
1549.7
1
1658.81
1
1572.59
1
1492.46
1
1201.93
1
828.692
1
616.011
1
416.509
1
299.248
1
203.43
1
148.271
1
131.159
1
100.762
1
92.9224
1
76.6893
1
77.9391
1
68.2236
1
70.4111
1
74.2718
1
74.851
1
73.403
1
59.2468
1
63.8533
1
65.4734
1
55.7592
1
66.2387
1
66.7116
1
59.7341
1
68.9536
1
71.2907
1
72.1657
1
52.8206
1
57.0902
1
end of experiment
